scale,wall time(ms),# of edges
2,0.093,0
3,0.143,2
4,0.141,4
5,0.149,6
6,0.153,15
7,0.202,32
8,0.305,61
9,0.693,126
10,0.727,253
11,0.723,523
12,2.112,1006
13,2.644,2021
14,3.206,4067
15,5.248,8145
16,0.138,16307
17,0.174,32659
18,0.295,64956
19,0.396,130934
20,184.791,6691249
21,631.624,24675462
22,1631.17,60260676
23,2682.49,127800301
24,10.656,260159420
