scale,wall time(ms),# of edges
2,0.093,1
3,0.087,3
4,0.177,5
5,0.201,13
6,0.244,28
7,0.425,60
8,0.56,123
9,0.422,248
10,1.022,499
11,0.996,1008
12,2.506,2015
13,2.872,4040
14,3.897,8109
15,5.975,16310
16,9.097,32576
17,0.266,65110
18,0.421,130381
19,0.489,359938
20,555.461,9020580
21,1232.76,27675694
22,3546.84,62622714
23,6177.7,129162484
24,18.963,260977588
