scale,wall time(ms),# of edges
2,6.037,10
3,20.997,40
4,46.308,122
5,86.089,284
6,149.799,798
7,294.417,1896
8,490.696,4322
9,852.822,9606
10,1505.3,21038
11,2523.68,45700
12,4130.5,97396
13,6990.96,204516
14,11411.9,425960
15,19331.5,882288
16,31641.8,1814602
17,51027.5,3714994
18,83013.8,7575982
19,144548,15393106
