scale,wall time(ms),# of edges
2,3.94,8
3,53.573,34
4,83.912,126
5,205.181,326
6,379.495,830
7,787.753,1910
8,1305.97,4382
9,2321.07,9800
10,3701.58,21320
11,6683.22,45522
12,10727.4,96892
13,18412,204312
14,29763.3,426248
15,50131.7,881982
16,80103.9,1815036
17,136129,3715140
18,212004,7575254
19,359808,15393698
