scale,wall time(ms),# of edges
2,10.821,8
3,30.004,34
4,66.494,112
5,133.847,322
6,265.712,786
7,539.324,1924
8,866.584,4298
9,2071.65,9766
10,3189.71,21260
11,5143.61,45668
12,8606.87,97024
13,18277.9,204528
14,26842,426302
15,41674.5,881800
16,65844.5,1815220
17,105353,3715592
18,165972,7573674
19,332882,15390654
