scale,wall time(ms),# of edges
2,12.996,10
3,29.561,36
4,71.472,124
5,134.434,332
6,240.074,790
7,486.04,1874
8,805.059,4366
9,1344.86,9696
10,2347.56,21068
11,4121.12,45584
12,6623.68,96982
13,11145.2,204492
14,18595.5,425978
15,31380.2,881240
16,50176.7,1813824
17,82906.8,3714114
18,134225,7574876
19,223844,15393424
